Water Level (m),Flooded Area (%)
40.00,2.41
40.50,3.22
41.00,3.95
41.50,4.81
42.00,5.57
42.50,6.48
43.00,7.43
43.50,8.11
44.00,8.97
44.50,9.99
45.00,10.92
45.50,11.97
46.00,13.16
46.50,14.41
47.00,15.81
47.50,17.19
48.00,18.77
48.50,20.19
49.00,21.77
49.50,23.47
50.00,25.25
